# m_ttbar (GeV) 				 singlet 				 octet
335				68.3406				33.8892
335.1				68.8347				34.0394
335.2				69.3377				34.1916
335.3				69.8499				34.3459
335.4				70.3716				34.5023
335.5				70.9031				34.661
335.6				71.4446				34.822
335.7				71.9964				34.9853
335.8				72.5589				35.151
335.9				73.1324				35.3191
336				73.7173				35.4897
336.1				74.3138				35.6629
336.2				74.9223				35.8387
336.3				75.5432				36.0172
336.4				76.177				36.1984
336.5				76.824				36.3825
336.6				77.4847				36.5695
336.7				78.1595				36.7596
336.8				78.8489				36.9526
336.9				79.5534				37.1489
337				80.2736				37.3484
337.1				81.0098				37.5512
337.2				81.7628				37.7575
337.3				82.5332				37.9672
337.4				83.3215				38.1807
337.5				84.1284				38.3978
337.6				84.9546				38.6188
337.7				85.8008				38.8438
337.8				86.6678				39.0728
337.9				87.5564				39.3061
338				88.4674				39.5437
338.1				89.4017				39.7858
338.2				90.3602				40.0325
338.3				91.344				40.2839
338.4				92.3541				40.5403
338.5				93.3915				40.8018
338.6				94.4574				41.0685
338.7				95.5531				41.3407
338.8				96.6799				41.6185
338.9				97.839				41.9021
339				99.0321				42.1918
339.1				100.261				42.4877
339.2				101.526				42.79
339.3				102.83				43.0991
339.4				104.175				43.4151
339.5				105.563				43.7384
339.6				106.995				44.0692
339.7				108.474				44.4077
339.8				110.003				44.7544
339.9				111.583				45.1095
340				113.219				45.4734
340.1				114.911				45.8464
340.2				116.665				46.229
340.3				118.482				46.6216
340.4				120.367				47.0245
340.5				122.324				47.4382
340.6				124.356				47.8633
340.7				126.469				48.3002
340.8				128.667				48.7496
340.9				130.955				49.2119
341				133.34				49.6879
341.1				135.826				50.1782
341.2				138.422				50.6835
341.3				141.133				51.2046
341.4				143.969				51.7423
341.5				146.938				52.2975
341.6				150.048				52.8712
341.7				153.311				53.4643
341.8				156.738				54.078
341.9				160.341				54.7134
342				164.133				55.3719
342.1				168.129				56.0547
342.2				172.345				56.7635
342.3				176.8				57.4997
342.4				181.513				58.2653
342.5				186.505				59.0619
342.6				191.801				59.8919
342.7				197.427				60.7573
342.8				203.412				61.6607
342.9				209.788				62.6048
343				216.591				63.5925
343.1				223.859				64.6272
343.2				231.634				65.7123
343.3				239.964				66.8518
343.4				248.897				68.05
343.5				258.49				69.3119
343.6				268.798				70.6427
343.7				279.884				72.0483
343.8				291.808				73.5353
343.9				304.634				75.1111
344				318.421				76.7838
344.1				333.225				78.5624
344.2				349.088				80.4568
344.3				366.041				82.478
344.4				384.089				84.6377
344.5				403.212				86.9484
344.6				423.355				89.4228
344.7				444.424				92.0735
344.8				466.287				94.9124
344.9				488.774				97.9491
345				511.687				101.191
345.1				534.808				104.641
345.2				557.916				108.298
345.3				580.799				112.157
345.4				603.268				116.208
345.5				625.164				120.436
345.6				646.364				124.823
345.7				666.781				129.352
345.8				686.361				134.001
345.9				705.08				138.75
346				722.935				143.58
346.1				739.943				148.474
346.2				756.133				153.413
346.3				771.541				158.384
346.4				786.211				163.374
346.5				800.186				168.371
346.6				813.511				173.366
346.7				826.232				178.351
346.8				838.389				183.319
346.9				850.025				188.264
347				861.176				193.182
347.1				871.878				198.069
347.2				882.163				202.922
347.3				892.062				207.739
347.4				901.601				212.518
347.5				910.807				217.258
347.6				919.702				221.957
347.7				928.307				226.615
347.8				936.642				231.231
347.9				944.724				235.806
348				952.571				240.339
348.1				960.195				244.83
348.2				967.613				249.28
348.3				974.835				253.69
348.4				981.873				258.058
348.5				988.739				262.386
348.6				995.441				266.675
348.7				1001.99				270.925
348.8				1008.39				275.137
348.9				1014.65				279.311
349				1020.79				283.447
349.1				1026.8				287.548
349.2				1032.69				291.612
349.3				1038.46				295.641
349.4				1044.14				299.636
349.5				1049.7				303.597
349.6				1055.17				307.525
349.7				1060.55				311.42
349.8				1065.84				315.284
349.9				1071.04				319.116
350				1076.16				322.918
350.1				1081.21				326.689
350.2				1086.17				330.431
350.3				1091.07				334.144
350.4				1095.89				337.829
350.5				1100.65				341.486
350.6				1105.35				345.115
350.7				1109.98				348.718
350.8				1114.55				352.295
350.9				1119.06				355.845
351				1123.52				359.371
351.1				1127.93				362.872
351.2				1132.28				366.348
351.3				1136.58				369.801
351.4				1140.83				373.23
351.5				1145.04				376.636
351.6				1149.2				380.02
351.7				1153.31				383.381
351.8				1157.38				386.72
351.9				1161.41				390.038
352				1165.4				393.335
352.1				1169.35				396.612
352.2				1173.27				399.868
352.3				1177.14				403.104
352.4				1180.98				406.32
352.5				1184.78				409.517
352.6				1188.55				412.696
352.7				1192.28				415.855
352.8				1195.98				418.996
352.9				1199.65				422.119
353				1203.29				425.224
353.1				1206.9				428.312
353.2				1210.48				431.382
353.3				1214.03				434.436
353.4				1217.55				437.473
353.5				1221.04				440.493
353.6				1224.51				443.497
353.7				1227.95				446.485
353.8				1231.37				449.458
353.9				1234.76				452.415
354				1238.12				455.357
354.1				1241.46				458.283
354.2				1244.78				461.195
354.3				1248.07				464.093
354.4				1251.35				466.976
354.5				1254.59				469.844
354.6				1257.82				472.699
354.7				1261.03				475.54
354.8				1264.21				478.368
354.9				1267.38				481.182
355				1270.52				483.983
355.1				1273.65				486.77
355.2				1276.75				489.545
355.3				1279.84				492.307
355.4				1282.91				495.057
355.5				1285.96				497.794
355.6				1288.99				500.519
355.7				1292				503.232
355.8				1295				505.933
355.9				1297.98				508.623
356				1300.94				511.301
356.1				1303.89				513.967
356.2				1306.82				516.622
356.3				1309.73				519.266
356.4				1312.63				521.898
356.5				1315.51				524.52
356.6				1318.38				527.131
356.7				1321.23				529.731
356.8				1324.07				532.321
356.9				1326.89				534.901
357				1329.7				537.47
357.1				1332.5				540.029
357.2				1335.28				542.578
357.3				1338.04				545.117
357.4				1340.8				547.646
357.5				1343.54				550.165
357.6				1346.27				552.675
357.7				1348.98				555.176
357.8				1351.68				557.667
357.9				1354.37				560.148
358				1357.05				562.621
358.1				1359.71				565.084
358.2				1362.37				567.539
358.3				1365.01				569.984
358.4				1367.64				572.421
358.5				1370.25				574.849
358.6				1372.86				577.268
358.7				1375.46				579.679
358.8				1378.04				582.082
358.9				1380.61				584.476
359				1383.18				586.862
359.1				1385.73				589.239
359.2				1388.27				591.609
359.3				1390.8				593.97
359.4				1393.32				596.324
359.5				1395.83				598.67
359.6				1398.33				601.008
359.7				1400.82				603.338
359.8				1403.3				605.66
359.9				1405.77				607.975
360				1408.23				610.283
360.1				1410.69				612.583
360.2				1413.13				614.876
360.3				1415.56				617.161
360.4				1417.99				619.439
360.5				1420.4				621.71
360.6				1422.81				623.974
360.7				1425.2				626.231
360.8				1427.59				628.481
360.9				1429.97				630.725
361				1432.34				632.961
361.1				1434.71				635.191
361.2				1437.06				637.413
361.3				1439.41				639.63
361.4				1441.75				641.839
361.5				1444.08				644.042
361.6				1446.4				646.239
361.7				1448.71				648.429
361.8				1451.02				650.613
361.9				1453.32				652.79
362				1455.61				654.962
362.1				1457.89				657.127
362.2				1460.17				659.286
362.3				1462.44				661.438
362.4				1464.7				663.585
362.5				1466.95				665.726
362.6				1469.2				667.861
362.7				1471.44				669.99
362.8				1473.67				672.113
362.9				1475.9				674.23
363				1478.12				676.341
363.1				1480.33				678.447
363.2				1482.53				680.547
363.3				1484.73				682.642
363.4				1486.92				684.731
363.5				1489.11				686.814
363.6				1491.29				688.892
363.7				1493.46				690.964
363.8				1495.62				693.031
363.9				1497.78				695.093
364				1499.93				697.149
364.1				1502.08				699.2
364.2				1504.22				701.246
364.3				1506.35				703.287
364.4				1508.48				705.322
364.5				1510.6				707.353
364.6				1512.72				709.378
364.7				1514.83				711.398
364.8				1516.93				713.413
364.9				1519.03				715.423
365				1521.12				717.429
365.1				1523.21				719.429
365.2				1525.29				721.425
365.3				1527.36				723.415
365.4				1529.43				725.401
365.5				1531.49				727.382
365.6				1533.55				729.359
365.7				1535.61				731.33
365.8				1537.65				733.297
365.9				1539.69				735.26
366				1541.73				737.218
366.1				1543.76				739.171
366.2				1545.79				741.119
366.3				1547.81				743.064
366.4				1549.82				745.003
366.5				1551.83				746.939
366.6				1553.84				748.87
366.7				1555.84				750.796
366.8				1557.83				752.718
366.9				1559.82				754.636
367				1561.81				756.549
367.1				1563.79				758.459
367.2				1565.77				760.364
367.3				1567.74				762.264
367.4				1569.7				764.161
367.5				1571.66				766.054
367.6				1573.62				767.942
367.7				1575.57				769.826
367.8				1577.52				771.706
367.9				1579.46				773.582
368				1581.4				775.454
368.1				1583.33				777.322
368.2				1585.26				779.187
368.3				1587.18				781.047
368.4				1589.1				782.903
368.5				1591.02				784.755
368.6				1592.93				786.604
368.7				1594.83				788.448
368.8				1596.74				790.289
368.9				1598.63				792.126
369				1600.53				793.959
369.1				1602.42				795.789
369.2				1604.3				797.615
369.3				1606.18				799.437
369.4				1608.06				801.255
369.5				1609.93				803.069
369.6				1611.8				804.88
369.7				1613.66				806.688
369.8				1615.52				808.492
369.9				1617.38				810.292
370				1619.23				812.088
370.1				1621.08				813.882
370.2				1622.93				815.671
370.3				1624.77				817.457
370.4				1626.6				819.24
370.5				1628.43				821.019
370.6				1630.26				822.795
370.7				1632.09				824.567
370.8				1633.91				826.336
370.9				1635.73				828.101
371				1637.54				829.864
371.1				1639.35				831.622
371.2				1641.16				833.378
371.3				1642.96				835.13
371.4				1644.76				836.879
371.5				1646.55				838.625
371.6				1648.34				840.367
371.7				1650.13				842.106
371.8				1651.92				843.842
371.9				1653.7				845.575
372				1655.47				847.305
372.1				1657.25				849.031
372.2				1659.02				850.754
372.3				1660.78				852.475
372.4				1662.55				854.192
372.5				1664.31				855.906
372.6				1666.06				857.617
372.7				1667.82				859.324
372.8				1669.57				861.029
372.9				1671.31				862.731
373				1673.06				864.43
373.1				1674.8				866.125
373.2				1676.53				867.818
373.3				1678.26				869.508
373.4				1679.99				871.195
373.5				1681.72				872.879
373.6				1683.44				874.56
373.7				1685.16				876.238
373.8				1686.88				877.913
373.9				1688.6				879.586
374				1690.31				881.255
374.1				1692.01				882.922
374.2				1693.72				884.586
374.3				1695.42				886.247
374.4				1697.12				887.905
374.5				1698.81				889.56
374.6				1700.51				891.213
374.7				1702.2				892.863
374.8				1703.88				894.51
374.9				1705.56				896.154
375				1707.25				897.796
375.1				1708.92				899.435
375.2				1710.6				901.071
375.3				1712.27				902.705
375.4				1713.94				904.336
375.5				1715.6				905.964
375.6				1717.27				907.59
375.7				1718.92				909.213
375.8				1720.58				910.833
375.9				1722.24				912.451
376				1723.89				914.067
376.1				1725.54				915.679
376.2				1727.18				917.289
376.3				1728.82				918.897
376.4				1730.46				920.502
376.5				1732.1				922.104
376.6				1733.74				923.704
376.7				1735.37				925.302
376.8				1737				926.897
376.9				1738.62				928.489
377				1740.25				930.079
377.1				1741.87				931.667
377.2				1743.49				933.252
377.3				1745.1				934.835
377.4				1746.72				936.415
377.5				1748.33				937.993
377.6				1749.94				939.568
377.7				1751.54				941.141
377.8				1753.15				942.712
377.9				1754.75				944.28
378				1756.34				945.846
378.1				1757.94				947.41
378.2				1759.53				948.971
378.3				1761.12				950.53
378.4				1762.71				952.086
378.5				1764.29				953.641
378.6				1765.88				955.193
378.7				1767.46				956.742
378.8				1769.04				958.29
378.9				1770.61				959.835
379				1772.18				961.378
379.1				1773.75				962.918
379.2				1775.32				964.457
379.3				1776.89				965.993
379.4				1778.45				967.527
379.5				1780.01				969.059
379.6				1781.57				970.588
379.7				1783.13				972.116
379.8				1784.68				973.641
379.9				1786.23				975.164
380				1787.78				976.685
