# Compute m_ttbar distribution dxsection/dm_ttbar (pb/GeV) of PP > ttbar. Energy and mass in GeV, xsection in pb.
# Parameters: alphaS(ScaleR) = 0.107655, m_t = 172.5, PDFset = NNPDF31_nnlo_as_0118_notop, PDFmember = 0, ScaleF = 172.5, ScaleR = 172.5, sqrt(s_hadron) = 13000, MZ = 91.2, vev = 246.22, RelativeError = 0.01, DynamicScalingChoice = 0, ScaleUncertainty = (0.5,2)
# m_ttbar (GeV) 				 gg > singlet 	 [lower , 	 upper] 				 gg > octet 	 [lower , 	 upper] 				 qq > octet 	 [lower , 	 upper]
335				0.0106232	-0.0821908	0.0885201				0.014326	-0.116062	0.115954				0.00749057	-0.00515721	0.0183243
335.1				0.0106515	-0.0826759	0.0889859				0.0143245	-0.116428	0.116237				0.00750926	-0.00517622	0.0183753
335.2				0.0106807	-0.0831703	0.0894612				0.0143233	-0.116801	0.116525				0.00752831	-0.0051955	0.0184273
335.3				0.0107107	-0.0836743	0.0899461				0.0143227	-0.117179	0.116819				0.00754772	-0.00521508	0.0184801
335.4				0.0107416	-0.0841881	0.0904411				0.0143226	-0.117564	0.117119				0.0075675	-0.00523495	0.0185339
335.5				0.0107734	-0.0847121	0.0909464				0.014323	-0.117955	0.117425				0.00758767	-0.00525512	0.0185887
335.6				0.0108062	-0.0852466	0.0914623				0.0143239	-0.118352	0.117736				0.00760807	-0.0052756	0.0186445
335.7				0.0108399	-0.0857918	0.0919892				0.0143254	-0.118757	0.118054				0.00762903	-0.00529641	0.0187013
335.8				0.0108745	-0.0863481	0.0925272				0.0143275	-0.119168	0.118378				0.00765041	-0.00531754	0.0187591
335.9				0.0109102	-0.0869158	0.0930769				0.0143301	-0.119586	0.118709				0.00767221	-0.005339	0.018818
336				0.010947	-0.0874953	0.0936385				0.0143333	-0.120012	0.119047				0.00769467	-0.00536081	0.0188779
336.1				0.0109848	-0.088087	0.0942125				0.0143371	-0.120445	0.119391				0.00771734	-0.00538296	0.018939
336.2				0.0110237	-0.0886911	0.0947992				0.0143415	-0.120886	0.119742				0.00774047	-0.00540547	0.0190013
336.3				0.0110638	-0.0893082	0.095399				0.0143465	-0.121334	0.1201				0.00776407	-0.00542836	0.0190647
336.4				0.011105	-0.0899386	0.0960123				0.0143521	-0.121791	0.120466				0.00778804	-0.00545162	0.0191293
336.5				0.0111475	-0.0905828	0.0966396				0.0143585	-0.122255	0.120839				0.0078126	-0.00547527	0.0191952
336.6				0.0111912	-0.0912413	0.0972813				0.0143655	-0.122728	0.12122				0.00783767	-0.00549932	0.0192623
336.7				0.0112363	-0.0919144	0.0979379				0.0143731	-0.12321	0.121609				0.00786325	-0.00552378	0.0193308
336.8				0.0112826	-0.0926027	0.0986098				0.0143815	-0.123701	0.122005				0.00788937	-0.00554867	0.0194006
336.9				0.0113304	-0.0933068	0.0992978				0.0143906	-0.124201	0.122411				0.00791604	-0.00557398	0.0194717
337				0.0113796	-0.0940271	0.100002				0.0144005	-0.124711	0.122825				0.00794326	-0.00559974	0.0195443
337.1				0.0114303	-0.0947642	0.100724				0.0144111	-0.12523	0.123248				0.00797106	-0.00562596	0.0196183
337.2				0.0114825	-0.0955187	0.101463				0.0144225	-0.125759	0.12368				0.00799946	-0.00565266	0.0196939
337.3				0.0115363	-0.0962913	0.102221				0.0144347	-0.126298	0.124121				0.00802847	-0.00567983	0.0197709
337.4				0.0115918	-0.0970825	0.102997				0.0144477	-0.126848	0.124572				0.0080581	-0.00570751	0.0198496
337.5				0.011649	-0.0978931	0.103794				0.0144616	-0.127409	0.125033				0.00808838	-0.0057357	0.01993
337.6				0.011708	-0.0987238	0.10461				0.0144764	-0.127981	0.125504				0.00811933	-0.00576439	0.020012
337.7				0.0117688	-0.0995754	0.105448				0.0144921	-0.128565	0.125986				0.00815097	-0.00579366	0.0200957
337.8				0.0118315	-0.100449	0.106307				0.0145087	-0.129161	0.126478				0.0081833	-0.00582349	0.0201812
337.9				0.0118961	-0.101344	0.10719				0.0145263	-0.129768	0.126982				0.00821638	-0.0058539	0.0202685
338				0.0119629	-0.102263	0.108096				0.0145449	-0.130389	0.127497				0.0082502	-0.0058849	0.0203577
338.1				0.0120318	-0.103207	0.109026				0.0145645	-0.131022	0.128024				0.00828479	-0.00591653	0.0204489
338.2				0.0121029	-0.104175	0.109983				0.0145851	-0.131669	0.128563				0.00832019	-0.00594879	0.0205421
338.3				0.0121763	-0.10517	0.110965				0.0146068	-0.13233	0.129115				0.0083576	-0.0059817	0.0206374
338.4				0.0122521	-0.106192	0.111976				0.0146296	-0.133005	0.12968				0.00839468	-0.0060153	0.0207348
338.5				0.0123304	-0.107243	0.113018				0.0146536	-0.133696	0.130261				0.00843264	-0.0060496	0.0208345
338.6				0.0124113	-0.108323	0.114088				0.0146788	-0.134401	0.130853				0.00847152	-0.00608463	0.0209364
338.7				0.012495	-0.109434	0.115189				0.0147052	-0.135123	0.13146				0.00851133	-0.0061204	0.0210408
338.8				0.0125815	-0.110578	0.116323				0.0147329	-0.13586	0.132082				0.00855213	-0.00615696	0.0211476
338.9				0.012671	-0.111755	0.117491				0.0147619	-0.136615	0.132719				0.00859393	-0.00619432	0.0212569
339				0.0127636	-0.112968	0.118695				0.0147922	-0.137388	0.133372				0.00863677	-0.00623251	0.0213689
339.1				0.0128594	-0.114218	0.119937				0.014824	-0.138179	0.134042				0.0086807	-0.00627157	0.0214836
339.2				0.0129587	-0.115506	0.121217				0.0148574	-0.138988	0.134729				0.00872576	-0.00631152	0.0216011
339.3				0.0130617	-0.116834	0.122539				0.0148925	-0.139818	0.135434				0.00877196	-0.0063524	0.0217215
339.4				0.0131682	-0.118205	0.123903				0.0149288	-0.140668	0.136157				0.00881939	-0.00639424	0.0218451
339.5				0.0132786	-0.119621	0.125313				0.0149668	-0.141538	0.136899				0.00886807	-0.00643709	0.0219717
339.6				0.013393	-0.121083	0.12677				0.0150065	-0.142431	0.137661				0.00891805	-0.00648097	0.0221017
339.7				0.0135118	-0.122593	0.128276				0.0150479	-0.143347	0.138445				0.00896939	-0.00652594	0.0222351
339.8				0.0136351	-0.124156	0.129835				0.0150912	-0.144287	0.139249				0.00902214	-0.00657203	0.022372
339.9				0.0137631	-0.125772	0.131448				0.0151364	-0.145251	0.140076				0.00907637	-0.0066193	0.0225126
340				0.0138961	-0.127445	0.133119				0.0151836	-0.146242	0.140926				0.00913211	-0.00666778	0.022657
340.1				0.0140344	-0.129178	0.134851				0.0152328	-0.147259	0.141801				0.00918944	-0.00671753	0.0228055
340.2				0.0141782	-0.130974	0.136647				0.0152842	-0.148304	0.1427				0.00924845	-0.00676861	0.0229581
340.3				0.0143279	-0.132837	0.138511				0.0153379	-0.149378	0.143627				0.00930917	-0.00682107	0.0231151
340.4				0.0144837	-0.134771	0.140446				0.0153938	-0.150483	0.144581				0.00937169	-0.00687497	0.0232766
340.5				0.014646	-0.136779	0.142457				0.0154523	-0.15162	0.145564				0.00943611	-0.00693038	0.0234429
340.6				0.0148153	-0.138866	0.144549				0.0155133	-0.15279	0.146577				0.00950249	-0.00698737	0.0236142
340.7				0.0149919	-0.141036	0.146725				0.015577	-0.153996	0.147622				0.00957095	-0.007046	0.0237906
340.8				0.0151763	-0.143296	0.148991				0.0156436	-0.155237	0.148699				0.00964156	-0.00710637	0.0239725
340.9				0.0153689	-0.145649	0.151352				0.015713	-0.156517	0.149811				0.00971444	-0.00716854	0.02416
341				0.0155703	-0.148102	0.153815				0.0157856	-0.157838	0.15096				0.00978969	-0.00723262	0.0243536
341.1				0.015781	-0.150662	0.156386				0.0158614	-0.1592	0.152146				0.00986743	-0.00729869	0.0245534
341.2				0.0160018	-0.153335	0.159072				0.0159408	-0.160607	0.153372				0.0099478	-0.00736685	0.0247598
341.3				0.016233	-0.156129	0.161881				0.0160236	-0.162061	0.154641				0.0100309	-0.00743722	0.0249731
341.4				0.0164755	-0.159053	0.164822				0.0161101	-0.163563	0.155953				0.0101169	-0.0075099	0.0251937
341.5				0.0167302	-0.162114	0.167902				0.0162008	-0.165117	0.157312				0.010206	-0.00758504	0.0254219
341.6				0.0169977	-0.165323	0.171132				0.0162955	-0.166726	0.15872				0.0102983	-0.00766275	0.0256583
341.7				0.0172791	-0.168691	0.174523				0.0163947	-0.168393	0.16018				0.010394	-0.00774318	0.0259031
341.8				0.0175753	-0.172229	0.178087				0.0164985	-0.17012	0.161694				0.0104933	-0.00782648	0.026157
341.9				0.0178875	-0.17595	0.181837				0.0166073	-0.171912	0.163267				0.0105964	-0.00791283	0.0264204
342				0.0182169	-0.179869	0.185787				0.0167213	-0.173772	0.1649				0.0107035	-0.0080024	0.0266939
342.1				0.0185647	-0.183999	0.189952				0.0168408	-0.175705	0.166598				0.0108148	-0.00809538	0.0269781
342.2				0.0189326	-0.188358	0.194347				0.0169663	-0.177714	0.168364				0.0109307	-0.008192	0.0272736
342.3				0.019322	-0.192966	0.198996				0.017098	-0.179805	0.170204				0.0110514	-0.00829247	0.0275812
342.4				0.0197347	-0.197841	0.203917				0.0172364	-0.181982	0.172122				0.0111773	-0.00839704	0.0279016
342.5				0.0201727	-0.203007	0.209133				0.0173819	-0.184253	0.174123				0.0113086	-0.00850598	0.0282356
342.6				0.0206381	-0.208488	0.21467				0.017535	-0.186622	0.176213				0.0114457	-0.0086196	0.0285842
342.7				0.0211332	-0.214312	0.220554				0.0176962	-0.189097	0.178397				0.011589	-0.00873819	0.0289483
342.8				0.021661	-0.220508	0.226815				0.0178664	-0.191685	0.180681				0.0117389	-0.00886213	0.0293291
342.9				0.0222235	-0.22711	0.233488				0.0180455	-0.194394	0.183074				0.011896	-0.00899178	0.0297276
343				0.0228242	-0.234155	0.240613				0.0182345	-0.197233	0.185585				0.0120607	-0.00912756	0.0301453
343.1				0.0234666	-0.241682	0.248224				0.0184343	-0.200212	0.188218				0.0122337	-0.00926995	0.0305835
343.2				0.0241543	-0.249735	0.256367				0.0186456	-0.203341	0.190985				0.0124154	-0.00941943	0.0310437
343.3				0.0248913	-0.258361	0.265092				0.0188694	-0.206632	0.193897				0.0126067	-0.00957658	0.0315278
343.4				0.025682	-0.267613	0.274451				0.0191065	-0.210099	0.196964				0.0128083	-0.009742	0.0320375
343.5				0.0265309	-0.277546	0.284499				0.0193582	-0.213755	0.2002				0.0130211	-0.00991637	0.0325751
343.6				0.027443	-0.288219	0.295298				0.0196256	-0.217617	0.20362				0.0132459	-0.0101005	0.0331428
343.7				0.0284231	-0.299693	0.306906				0.01991	-0.221703	0.207238				0.0134838	-0.0102951	0.0337432
343.8				0.0294759	-0.312032	0.319386				0.0202126	-0.226031	0.21107				0.013736	-0.0105012	0.0343793
343.9				0.0306075	-0.3253	0.332807				0.0205359	-0.230624	0.21514				0.0140038	-0.0107198	0.0350541
344				0.0318219	-0.339556	0.347225				0.0208812	-0.235505	0.219467				0.0142885	-0.010952	0.0357713
344.1				0.033123	-0.354855	0.362695				0.0212507	-0.240702	0.224075				0.0145917	-0.0111991	0.036535
344.2				0.0345137	-0.371239	0.379257				0.0216465	-0.246244	0.228992				0.0149153	-0.0114625	0.0373493
344.3				0.0359953	-0.388735	0.396937				0.0220712	-0.252162	0.234245				0.015261	-0.0117436	0.0382194
344.4				0.0375666	-0.407345	0.415735				0.0225273	-0.258491	0.239868				0.0156309	-0.0120442	0.0391502
344.5				0.0392271	-0.427045	0.435622				0.0230193	-0.265266	0.245893				0.0160272	-0.0123659	0.0401473
344.6				0.0409637	-0.447771	0.456531				0.0235463	-0.272524	0.252355				0.016452	-0.0127103	0.0412165
344.7				0.042769	-0.469421	0.478355				0.0241129	-0.280301	0.259287				0.0169076	-0.0130794	0.0423633
344.8				0.0446288	-0.491854	0.500945				0.0247213	-0.288629	0.266721				0.0173959	-0.0134744	0.0435928
344.9				0.0465259	-0.514887	0.524115				0.0253733	-0.297534	0.274682				0.0179185	-0.0138969	0.0449094
345				0.0484407	-0.53831	0.547651				0.0260699	-0.307035	0.283191				0.0184764	-0.0143475	0.0463162
345.1				0.0503521	-0.561894	0.571319				0.0268113	-0.317137	0.292255				0.0190702	-0.0148267	0.0478143
345.2				0.0522392	-0.585407	0.594875				0.0275961	-0.327834	0.301866				0.0196994	-0.0153342	0.0494032
345.3				0.0540823	-0.608628	0.618077				0.0284223	-0.339105	0.311999				0.0203627	-0.015869	0.0510799
345.4				0.0558645	-0.63136	0.640754				0.0292864	-0.350917	0.322636				0.0210582	-0.0164296	0.0528395
345.5				0.0575718	-0.65344	0.662729				0.0301841	-0.363223	0.33373				0.021783	-0.0170139	0.0546752
345.6				0.0591939	-0.67474	0.683876				0.0311104	-0.37597	0.345231				0.0225338	-0.0176194	0.0565789
345.7				0.0607235	-0.695174	0.704108				0.0320597	-0.389098	0.357083				0.0233071	-0.0182434	0.0585415
345.8				0.0621582	-0.714688	0.723373				0.033027	-0.402546	0.369229				0.0240991	-0.0188829	0.0605535
345.9				0.0634965	-0.73326	0.74165				0.0340067	-0.416252	0.381611				0.0249061	-0.0195352	0.0626056
346				0.0647397	-0.750891	0.758981				0.0349937	-0.430157	0.394192				0.0257244	-0.0201974	0.0646887
346.1				0.0658905	-0.767601	0.775317				0.0359832	-0.444208	0.406883				0.0265508	-0.020867	0.0667944
346.2				0.066953	-0.783424	0.790727				0.0369712	-0.458354	0.419658				0.0273823	-0.0215419	0.068915
346.3				0.0679317	-0.7984	0.805262				0.037954	-0.472553	0.432475				0.0282161	-0.0222197	0.0710438
346.4				0.0688314	-0.812575	0.818961				0.0389283	-0.486765	0.445295				0.0290501	-0.0228989	0.0731922
346.5				0.0696573	-0.825999	0.83188				0.0398917	-0.500959	0.458088				0.0298821	-0.0235778	0.0753221
346.6				0.0704144	-0.83872	0.844068				0.0408417	-0.515105	0.470826				0.0307104	-0.0242551	0.0774479
346.7				0.0711074	-0.850787	0.855988				0.0417766	-0.529181	0.483721				0.0315338	-0.0249297	0.07956
346.8				0.071741	-0.862244	0.866902				0.0426949	-0.543168	0.496313				0.0323509	-0.0256008	0.0816331
346.9				0.0723195	-0.873137	0.877231				0.0435955	-0.557049	0.508798				0.0331609	-0.0262674	0.0837129
347				0.0728469	-0.883504	0.887018				0.0444774	-0.570812	0.521162				0.0339629	-0.0269291	0.0857698
347.1				0.0733271	-0.893385	0.895766				0.04534	-0.584446	0.533077				0.0347564	-0.0275854	0.0878106
347.2				0.0737632	-0.902815	0.904552				0.0461827	-0.597943	0.54515				0.0355408	-0.0282358	0.0898301
347.3				0.0741584	-0.911824	0.912904				0.0470052	-0.611298	0.557079				0.0363158	-0.02888	0.0918273
347.4				0.0745157	-0.920443	0.920854				0.0478074	-0.624505	0.56886				0.0370811	-0.0295178	0.0938013
347.5				0.0748378	-0.928699	0.928429				0.048589	-0.637561	0.580489				0.0378366	-0.0301491	0.0957517
347.6				0.0751269	-0.936617	0.935655				0.0493501	-0.650463	0.591965				0.038582	-0.0307737	0.0976781
347.7				0.0753854	-0.944219	0.942556				0.0500908	-0.663212	0.603286				0.0393174	-0.0313916	0.0995803
347.8				0.0756152	-0.951526	0.949151				0.0508112	-0.675805	0.614451				0.0400427	-0.0320027	0.101458
347.9				0.0758183	-0.958558	0.955464				0.0515114	-0.688243	0.625462				0.040758	-0.032607	0.103312
348				0.0759961	-0.965331	0.961511				0.0521917	-0.700527	0.636319				0.0414632	-0.0332045	0.105141
348.1				0.0761504	-0.971861	0.967309				0.0528523	-0.712658	0.647023				0.0421585	-0.0337953	0.106946
348.2				0.0762825	-0.978164	0.972795				0.0534935	-0.724636	0.657523				0.0428439	-0.0343795	0.108728
348.3				0.0763935	-0.984253	0.978137				0.0541154	-0.736464	0.667924				0.0435195	-0.034957	0.110485
348.4				0.0764851	-0.99014	0.983271				0.0547185	-0.748144	0.678176				0.0441855	-0.035528	0.11222
348.5				0.0765582	-0.995835	0.98821				0.0553031	-0.759677	0.688282				0.044842	-0.0360925	0.113931
348.6				0.0766136	-1.00135	0.992963				0.0558695	-0.771065	0.698244				0.0454892	-0.0366506	0.11562
348.7				0.0766526	-1.0067	0.997542				0.056418	-0.782311	0.708063				0.0461271	-0.0372025	0.117286
348.8				0.0766757	-1.01188	1.00199				0.0569489	-0.793417	0.717769				0.046756	-0.0377482	0.11893
348.9				0.076684	-1.01691	1.00625				0.0574625	-0.804385	0.727311				0.047376	-0.0382878	0.120552
349				0.0766781	-1.0218	1.01035				0.0579591	-0.815217	0.736718				0.0479871	-0.0388214	0.122153
349.1				0.0766587	-1.02654	1.01432				0.0584391	-0.825917	0.745991				0.0485897	-0.0393493	0.123734
349.2				0.0766266	-1.03116	1.01815				0.0589028	-0.836485	0.755135				0.0491838	-0.0398713	0.125293
349.3				0.0765822	-1.03565	1.02185				0.0593504	-0.846926	0.76415				0.0497696	-0.0403877	0.126833
349.4				0.0765262	-1.04002	1.02542				0.0597824	-0.85724	0.773039				0.0503473	-0.0408985	0.128352
349.5				0.0764704	-1.04428	1.02888				0.0602078	-0.86743	0.781805				0.0509169	-0.0414038	0.129852
349.6				0.0763926	-1.04842	1.03223				0.0606093	-0.8775	0.79045				0.0514787	-0.0419038	0.131333
349.7				0.0763048	-1.05246	1.03547				0.060996	-0.88745	0.798975				0.0520328	-0.0423985	0.132795
349.8				0.0762072	-1.05641	1.03861				0.0613681	-0.897283	0.807383				0.0525793	-0.0428881	0.134238
349.9				0.0761003	-1.06025	1.04165				0.061726	-0.907002	0.815677				0.0531184	-0.0433726	0.135664
350				0.075983	-1.064	1.0446				0.0620687	-0.916608	0.823859				0.0536501	-0.0438522	0.137072
350.1				0.0758585	-1.06767	1.04746				0.0623988	-0.926103	0.831929				0.0541748	-0.0443269	0.138462
350.2				0.0757259	-1.07125	1.05023				0.0627155	-0.93549	0.839891				0.0546924	-0.0447968	0.139835
350.3				0.0755853	-1.07474	1.05291				0.0630189	-0.94477	0.847747				0.0552031	-0.0452619	0.141192
350.4				0.0754371	-1.07816	1.05551				0.0633094	-0.953945	0.855498				0.0557071	-0.0457226	0.142531
350.5				0.0752816	-1.0815	1.05804				0.0635871	-0.963018	0.863147				0.0562044	-0.0461786	0.143855
350.6				0.0751192	-1.08477	1.06049				0.0638525	-0.97199	0.870695				0.0566951	-0.0466303	0.145163
350.7				0.0749499	-1.08797	1.06298				0.0641055	-0.980863	0.878232				0.0571795	-0.0470775	0.146455
350.8				0.074774	-1.0911	1.06529				0.0643464	-0.989639	0.885585				0.0576576	-0.0475204	0.147732
350.9				0.0745918	-1.09416	1.06754				0.0645755	-0.998319	0.892842				0.0581294	-0.0479592	0.148993
351				0.0744035	-1.09716	1.06971				0.064793	-1.00691	0.900005				0.0585953	-0.0483938	0.15024
351.1				0.0742093	-1.1001	1.07183				0.0649991	-1.0154	0.907076				0.0590551	-0.0488243	0.151472
351.2				0.0740095	-1.10297	1.07388				0.065194	-1.0238	0.914057				0.0595091	-0.0492508	0.15269
351.3				0.0738042	-1.10579	1.07584				0.0653779	-1.03212	0.920915				0.0599573	-0.0496734	0.153891
351.4				0.0735935	-1.10855	1.07778				0.065551	-1.04034	0.927718				0.0603998	-0.0500921	0.155081
351.5				0.0733777	-1.11126	1.07966				0.0657135	-1.04849	0.934435				0.0608368	-0.0505071	0.156256
351.6				0.0731569	-1.11391	1.08153				0.0658655	-1.05654	0.941106				0.0612683	-0.0509183	0.157419
351.7				0.0729313	-1.11652	1.08331				0.0660073	-1.06452	0.947655				0.0616944	-0.0513259	0.158569
351.8				0.0727011	-1.11907	1.08504				0.066139	-1.07241	0.954123				0.0621152	-0.0517298	0.159706
351.9				0.0724661	-1.12157	1.08671				0.0662607	-1.08022	0.960505				0.0625308	-0.0521302	0.160831
352				0.072227	-1.12403	1.08834				0.0663727	-1.08795	0.966814				0.0629413	-0.0525272	0.161942
352.1				0.0719836	-1.12644	1.08992				0.0664752	-1.0956	0.973044				0.0633468	-0.0529206	0.163042
352.2				0.0717361	-1.12881	1.09146				0.0665683	-1.10318	0.979198				0.0637473	-0.0533108	0.164129
352.3				0.0714846	-1.13113	1.09295				0.0666522	-1.11068	0.985274				0.0641429	-0.0536975	0.165204
352.4				0.0712292	-1.13341	1.0944				0.0667269	-1.11811	0.991278				0.0645337	-0.054081	0.166268
352.5				0.0709701	-1.13565	1.09581				0.0667927	-1.12546	0.997209				0.0649198	-0.0544613	0.16732
352.6				0.0707073	-1.13785	1.09718				0.0668497	-1.13274	1.00307				0.0653012	-0.0548384	0.168361
352.7				0.070441	-1.14001	1.09851				0.066898	-1.13996	1.00886				0.065678	-0.0552124	0.169391
352.8				0.0701712	-1.14213	1.0998				0.0669378	-1.1471	1.01458				0.0660503	-0.0555832	0.170409
352.9				0.069898	-1.14421	1.10105				0.0669691	-1.15417	1.02022				0.0664182	-0.0559511	0.171417
353				0.0696216	-1.14625	1.10227				0.0669923	-1.16117	1.02581				0.0667817	-0.056316	0.172414
353.1				0.0693421	-1.14827	1.10345				0.0670073	-1.16811	1.03132				0.0671409	-0.0566779	0.1734
353.2				0.0690595	-1.15024	1.10459				0.0670144	-1.17498	1.03677				0.0674958	-0.0570369	0.174376
353.3				0.0687743	-1.15218	1.10571				0.067014	-1.18179	1.04216				0.0678465	-0.0573931	0.175342
353.4				0.0684858	-1.15409	1.10678				0.0670054	-1.18853	1.04748				0.0681931	-0.0577465	0.176298
353.5				0.0681944	-1.15596	1.10724				0.0669892	-1.19521	1.05218				0.0685356	-0.058097	0.177243
353.6				0.0679003	-1.15781	1.10826				0.0669655	-1.20183	1.05737				0.0688741	-0.0584448	0.178179
353.7				0.0676035	-1.15962	1.10924				0.0669345	-1.20839	1.06251				0.0692087	-0.05879	0.179106
353.8				0.0673041	-1.1614	1.11019				0.0668961	-1.21488	1.06758				0.0695393	-0.0591324	0.180022
